B (T)	X1(V)	Y1 (V)	X2(V)	Y2(V)	X3 (V)	Y3 (V)	X4 (V)	Y4 (V)	SensA (V)	SensB (V)
1.99910E+0	-1.73248E-3	3.34503E-4	9.53682E-7	3.15728E-4	-9.75801E-7	-2.50294E-9	0.00000E+0	0.00000E+0	2.00220E+0	0.00000E+0
1.99510E+0	-1.72687E-3	3.33311E-4	9.53682E-7	3.45351E-4	-9.75801E-7	-2.50294E-9	0.00000E+0	0.00000E+0	1.99870E+0	0.00000E+0
1.99110E+0	-1.71924E-3	3.31881E-4	1.13250E-6	3.78968E-4	-9.75801E-7	-2.50294E-9	0.00000E+0	0.00000E+0	2.00220E+0	0.00000E+0
1.98710E+0	-1.71185E-3	3.30569E-4	1.31131E-6	4.09247E-4	-9.75801E-7	-2.44474E-9	0.00000E+0	0.00000E+0	2.00730E+0	0.00000E+0
1.98310E+0	-1.70351E-3	3.29020E-4	1.49012E-6	4.43282E-4	-9.75801E-7	-2.44474E-9	0.00000E+0	0.00000E+0	2.00360E+0	0.00000E+0
1.97910E+0	-1.69445E-3	3.27231E-4	1.60933E-6	4.79879E-4	-9.75801E-7	-2.44474E-9	0.00000E+0	0.00000E+0	1.99590E+0	0.00000E+0
1.97510E+0	-1.68575E-3	3.25682E-4	1.84775E-6	5.11233E-4	-9.75859E-7	-2.44474E-9	0.00000E+0	0.00000E+0	2.00630E+0	0.00000E+0
1.97110E+0	-1.67764E-3	3.24132E-4	2.02657E-6	5.40916E-4	-9.75859E-7	-2.44474E-9	0.00000E+0	0.00000E+0	2.00200E+0	0.00000E+0
1.96710E+0	-1.66882E-3	3.22463E-4	2.08618E-6	5.70897E-4	-9.75859E-7	-2.44474E-9	0.00000E+0	0.00000E+0	2.00070E+0	0.00000E+0
1.96310E+0	-1.65988E-3	3.20913E-4	2.26499E-6	5.99805E-4	-9.75917E-7	-2.44474E-9	0.00000E+0	0.00000E+0	1.99680E+0	0.00000E+0
1.95910E+0	-1.65046E-3	3.19006E-4	2.38420E-6	6.27700E-4	-9.75975E-7	-2.38653E-9	0.00000E+0	0.00000E+0	2.00050E+0	0.00000E+0
1.95510E+0	-1.64188E-3	3.17337E-4	2.56301E-6	6.52436E-4	-9.75975E-7	-2.38653E-9	0.00000E+0	0.00000E+0	2.00290E+0	0.00000E+0
1.95110E+0	-1.63174E-3	3.15549E-4	2.68222E-6	6.76934E-4	-9.76033E-7	-2.38653E-9	0.00000E+0	0.00000E+0	1.99590E+0	0.00000E+0
1.94710E+0	-1.62292E-3	3.13761E-4	2.74183E-6	6.97557E-4	-9.76033E-7	-2.38653E-9	0.00000E+0	0.00000E+0	2.00020E+0	0.00000E+0
1.94310E+0	-1.61327E-3	3.12092E-4	2.92064E-6	7.15557E-4	-9.76092E-7	-2.38653E-9	0.00000E+0	0.00000E+0	1.99210E+0	0.00000E+0
1.93910E+0	-1.60433E-3	3.10423E-4	2.98025E-6	7.29982E-4	-9.76150E-7	-2.38653E-9	0.00000E+0	0.00000E+0	1.99350E+0	0.00000E+0
1.93510E+0	-1.59717E-3	3.09112E-4	3.09946E-6	7.38803E-4	-9.76208E-7	-2.38653E-9	0.00000E+0	0.00000E+0	1.99900E+0	0.00000E+0
1.93110E+0	-1.59157E-3	3.07800E-4	3.15906E-6	7.43393E-4	-9.76208E-7	-2.38653E-9	0.00000E+0	0.00000E+0	1.99850E+0	0.00000E+0
1.92710E+0	-1.58597E-3	3.06847E-4	3.15906E-6	7.45062E-4	-9.76266E-7	-2.38653E-9	0.00000E+0	0.00000E+0	1.99940E+0	0.00000E+0
1.92310E+0	-1.58191E-3	3.06012E-4	3.21867E-6	7.43810E-4	-9.76266E-7	-2.38653E-9	0.00000E+0	0.00000E+0	2.00210E+0	0.00000E+0
1.91910E+0	-1.57905E-3	3.05535E-4	3.15906E-6	7.39221E-4	-9.76266E-7	-2.38653E-9	0.00000E+0	0.00000E+0	2.00510E+0	0.00000E+0
1.91510E+0	-1.57631E-3	3.05058E-4	3.15906E-6	7.29386E-4	-9.76324E-7	-2.44474E-9	0.00000E+0	0.00000E+0	1.99220E+0	0.00000E+0
1.91110E+0	-1.57429E-3	3.04701E-4	3.15906E-6	7.16690E-4	-9.76324E-7	-2.44474E-9	0.00000E+0	0.00000E+0	1.99540E+0	0.00000E+0
1.90710E+0	-1.57297E-3	3.04343E-4	3.09946E-6	6.97199E-4	-9.76383E-7	-2.44474E-9	0.00000E+0	0.00000E+0	1.99410E+0	0.00000E+0
1.90310E+0	-1.57262E-3	3.04224E-4	3.03985E-6	6.76636E-4	-9.76441E-7	-2.44474E-9	0.00000E+0	0.00000E+0	2.00750E+0	0.00000E+0
1.89910E+0	-1.57262E-3	3.04224E-4	2.92064E-6	6.54284E-4	-9.76441E-7	-2.44474E-9	0.00000E+0	0.00000E+0	2.00080E+0	0.00000E+0
1.89510E+0	-1.57297E-3	3.04224E-4	2.80143E-6	6.31217E-4	-9.76499E-7	-2.44474E-9	0.00000E+0	0.00000E+0	1.99600E+0	0.00000E+0
1.89110E+0	-1.57345E-3	3.04224E-4	2.74183E-6	6.06719E-4	-9.76499E-7	-2.44474E-9	0.00000E+0	0.00000E+0	2.00030E+0	0.00000E+0
1.88710E+0	-1.57393E-3	3.04224E-4	2.62262E-6	5.73758E-4	-9.76557E-7	-2.50294E-9	0.00000E+0	0.00000E+0	2.00110E+0	0.00000E+0
1.88310E+0	-1.57464E-3	3.04343E-4	2.44380E-6	5.36386E-4	-9.76557E-7	-2.50294E-9	0.00000E+0	0.00000E+0	2.00450E+0	0.00000E+0
1.87910E+0	-1.57536E-3	3.04343E-4	2.26499E-6	4.93590E-4	-9.76615E-7	-2.50294E-9	0.00000E+0	0.00000E+0	2.00260E+0	0.00000E+0
1.87510E+0	-1.57607E-3	3.04343E-4	2.02657E-6	4.54487E-4	-9.76674E-7	-2.56115E-9	0.00000E+0	0.00000E+0	1.99580E+0	0.00000E+0
1.87110E+0	-1.57655E-3	3.04343E-4	1.84775E-6	4.16460E-4	-9.76674E-7	-2.56115E-9	0.00000E+0	0.00000E+0	2.00140E+0	0.00000E+0
1.86710E+0	-1.57727E-3	3.04462E-4	1.66894E-6	3.68597E-4	-9.76732E-7	-2.61936E-9	0.00000E+0	0.00000E+0	1.99080E+0	0.00000E+0
1.86310E+0	-1.57786E-3	3.04462E-4	1.43052E-6	3.29735E-4	-9.76790E-7	-2.61936E-9	0.00000E+0	0.00000E+0	2.00130E+0	0.00000E+0
1.85910E+0	-1.57846E-3	3.04462E-4	1.25170E-6	2.85270E-4	-9.76790E-7	-2.61936E-9	0.00000E+0	0.00000E+0	2.00380E+0	0.00000E+0
1.85510E+0	-1.57870E-3	3.04462E-4	9.53682E-7	2.48017E-4	-9.76790E-7	-2.67757E-9	0.00000E+0	0.00000E+0	1.99640E+0	0.00000E+0
1.85110E+0	-1.57870E-3	3.04343E-4	7.74864E-7	2.04385E-4	-9.76848E-7	-2.67757E-9	0.00000E+0	0.00000E+0	1.99650E+0	0.00000E+0
1.84710E+0	-1.57846E-3	3.04224E-4	5.96050E-7	1.66179E-4	-9.76848E-7	-2.67757E-9	0.00000E+0	0.00000E+0	1.99820E+0	0.00000E+0
1.84310E+0	-1.57798E-3	3.04224E-4	3.57630E-7	1.32502E-4	-9.76848E-7	-2.67757E-9	0.00000E+0	0.00000E+0	2.00690E+0	0.00000E+0
1.83910E+0	-1.57762E-3	3.04105E-4	1.78815E-7	1.01090E-4	-9.76848E-7	-2.67757E-9	0.00000E+0	0.00000E+0	2.00420E+0	0.00000E+0
1.83510E+0	-1.57727E-3	3.03866E-4	0.00000E+0	7.85594E-5	-9.76790E-7	-2.73577E-9	0.00000E+0	0.00000E+0	2.00390E+0	0.00000E+0
1.83110E+0	-1.57679E-3	3.03747E-4	-1.19210E-7	6.19893E-5	-9.76790E-7	-2.73577E-9	0.00000E+0	0.00000E+0	2.00020E+0	0.00000E+0
1.82710E+0	-1.57631E-3	3.03628E-4	-1.78815E-7	4.90549E-5	-9.76790E-7	-2.73577E-9	0.00000E+0	0.00000E+0	1.99430E+0	0.00000E+0
1.82310E+0	-1.57560E-3	3.03390E-4	-2.38420E-7	3.80280E-5	-9.76732E-7	-2.73577E-9	0.00000E+0	0.00000E+0	1.99990E+0	0.00000E+0
1.81910E+0	-1.57476E-3	3.03270E-4	-3.57630E-7	3.24252E-5	-9.76674E-7	-2.67757E-9	0.00000E+0	0.00000E+0	2.00490E+0	0.00000E+0
1.81510E+0	-1.57369E-3	3.03151E-4	-4.17234E-7	3.03985E-5	-9.76615E-7	-2.67757E-9	0.00000E+0	0.00000E+0	2.00770E+0	0.00000E+0
1.81110E+0	-1.57250E-3	3.02913E-4	-4.17234E-7	3.12331E-5	-9.76557E-7	-2.67757E-9	0.00000E+0	0.00000E+0	1.99660E+0	0.00000E+0
1.80710E+0	-1.57119E-3	3.02555E-4	-4.17234E-7	3.42729E-5	-9.76557E-7	-2.67757E-9	0.00000E+0	0.00000E+0	1.99720E+0	0.00000E+0
1.80310E+0	-1.56940E-3	3.02197E-4	-4.17234E-7	3.96373E-5	-9.76499E-7	-2.67757E-9	0.00000E+0	0.00000E+0	1.99450E+0	0.00000E+0
1.79910E+0	-1.56701E-3	3.01840E-4	-3.57630E-7	4.86376E-5	-9.76441E-7	-2.67757E-9	0.00000E+0	0.00000E+0	1.99910E+0	0.00000E+0
1.79510E+0	-1.56415E-3	3.01244E-4	-4.17234E-7	5.95453E-5	-9.76441E-7	-2.67757E-9	0.00000E+0	0.00000E+0	1.99380E+0	0.00000E+0
1.79110E+0	-1.56141E-3	3.00648E-4	-3.57630E-7	7.19433E-5	-9.76324E-7	-2.67757E-9	0.00000E+0	0.00000E+0	2.00060E+0	0.00000E+0
1.78710E+0	-1.55760E-3	2.99932E-4	-2.38420E-7	8.94074E-5	-9.76324E-7	-2.67757E-9	0.00000E+0	0.00000E+0	2.00490E+0	0.00000E+0
1.78310E+0	-1.55342E-3	2.99217E-4	-1.78815E-7	1.07825E-4	-9.76266E-7	-2.61936E-9	0.00000E+0	0.00000E+0	1.99780E+0	0.00000E+0
1.77910E+0	-1.54913E-3	2.98383E-4	0.00000E+0	1.27078E-4	-9.76266E-7	-2.61936E-9	0.00000E+0	0.00000E+0	1.99680E+0	0.00000E+0
1.77510E+0	-1.54401E-3	2.97310E-4	5.96051E-8	1.52052E-4	-9.76266E-7	-2.61936E-9	0.00000E+0	0.00000E+0	1.99660E+0	0.00000E+0
1.77110E+0	-1.53805E-3	2.96237E-4	1.19210E-7	1.77802E-4	-9.76266E-7	-2.61936E-9	0.00000E+0	0.00000E+0	1.99200E+0	0.00000E+0
1.76710E+0	-1.53232E-3	2.95164E-4	2.98025E-7	2.06114E-4	-9.76266E-7	-2.61936E-9	0.00000E+0	0.00000E+0	2.00460E+0	0.00000E+0
1.76310E+0	-1.52529E-3	2.93734E-4	4.17234E-7	2.37049E-4	-9.76266E-7	-2.61936E-9	0.00000E+0	0.00000E+0	1.99420E+0	0.00000E+0
1.75910E+0	-1.51921E-3	2.92780E-4	5.96050E-7	2.64348E-4	-9.76266E-7	-2.61936E-9	0.00000E+0	0.00000E+0	1.99730E+0	0.00000E+0
1.75510E+0	-1.51194E-3	2.91230E-4	7.15259E-7	2.96952E-4	-9.76266E-7	-2.61936E-9	0.00000E+0	0.00000E+0	1.99640E+0	0.00000E+0
1.75110E+0	-1.50431E-3	2.89800E-4	8.94073E-7	3.29437E-4	-9.76324E-7	-2.56115E-9	0.00000E+0	0.00000E+0	2.00340E+0	0.00000E+0
1.74710E+0	-1.49608E-3	2.88250E-4	1.01329E-6	3.64305E-4	-9.76324E-7	-2.56115E-9	0.00000E+0	0.00000E+0	1.99570E+0	0.00000E+0
1.74310E+0	-1.48607E-3	2.86343E-4	1.19210E-6	4.03168E-4	-9.76383E-7	-2.56115E-9	0.00000E+0	0.00000E+0	2.00530E+0	0.00000E+0
1.73910E+0	-1.47689E-3	2.84674E-4	1.49012E-6	4.38930E-4	-9.76441E-7	-2.56115E-9	0.00000E+0	0.00000E+0	2.00140E+0	0.00000E+0
1.73510E+0	-1.46688E-3	2.82766E-4	1.66894E-6	4.72547E-4	-9.76499E-7	-2.56115E-9	0.00000E+0	0.00000E+0	1.99930E+0	0.00000E+0
1.73110E+0	-1.45782E-3	2.81097E-4	1.84775E-6	5.04557E-4	-9.76557E-7	-2.50294E-9	0.00000E+0	0.00000E+0	1.99750E+0	0.00000E+0
1.72710E+0	-1.44769E-3	2.79190E-4	1.90736E-6	5.35790E-4	-9.76557E-7	-2.56115E-9	0.00000E+0	0.00000E+0	1.99900E+0	0.00000E+0
1.72310E+0	-1.43922E-3	2.77640E-4	2.14578E-6	5.60824E-4	-9.76615E-7	-2.50294E-9	0.00000E+0	0.00000E+0	1.99890E+0	0.00000E+0
1.71910E+0	-1.43028E-3	2.75971E-4	2.32460E-6	5.84606E-4	-9.76674E-7	-2.50294E-9	0.00000E+0	0.00000E+0	1.99030E+0	0.00000E+0
1.71510E+0	-1.42265E-3	2.74541E-4	2.44380E-6	6.02487E-4	-9.76674E-7	-2.50294E-9	0.00000E+0	0.00000E+0	2.00060E+0	0.00000E+0
1.71110E+0	-1.41693E-3	2.73349E-4	2.56301E-6	6.14587E-4	-9.76732E-7	-2.50294E-9	0.00000E+0	0.00000E+0	2.00670E+0	0.00000E+0
1.70710E+0	-1.41121E-3	2.72514E-4	2.56301E-6	6.24124E-4	-9.76732E-7	-2.50294E-9	0.00000E+0	0.00000E+0	2.00200E+0	0.00000E+0
1.70310E+0	-1.40703E-3	2.71680E-4	2.68222E-6	6.28237E-4	-9.76732E-7	-2.50294E-9	0.00000E+0	0.00000E+0	2.00170E+0	0.00000E+0
1.69910E+0	-1.40441E-3	2.71203E-4	2.74183E-6	6.27641E-4	-9.76732E-7	-2.50294E-9	0.00000E+0	0.00000E+0	2.00060E+0	0.00000E+0
1.69510E+0	-1.40262E-3	2.70965E-4	2.74183E-6	6.22932E-4	-9.76732E-7	-2.50294E-9	0.00000E+0	0.00000E+0	1.99020E+0	0.00000E+0
1.69110E+0	-1.40143E-3	2.70726E-4	2.74183E-6	6.12620E-4	-9.76790E-7	-2.50294E-9	0.00000E+0	0.00000E+0	1.99340E+0	0.00000E+0
1.68710E+0	-1.40096E-3	2.70726E-4	2.74183E-6	5.97719E-4	-9.76790E-7	-2.56115E-9	0.00000E+0	0.00000E+0	1.99650E+0	0.00000E+0
1.68310E+0	-1.40096E-3	2.70726E-4	2.68222E-6	5.78824E-4	-9.76790E-7	-2.56115E-9	0.00000E+0	0.00000E+0	1.99370E+0	0.00000E+0
1.67910E+0	-1.40119E-3	2.70845E-4	2.56301E-6	5.54923E-4	-9.76848E-7	-2.56115E-9	0.00000E+0	0.00000E+0	2.00190E+0	0.00000E+0
1.67510E+0	-1.40155E-3	2.70845E-4	2.44380E-6	5.30187E-4	-9.76906E-7	-2.61936E-9	0.00000E+0	0.00000E+0	2.00170E+0	0.00000E+0
1.67110E+0	-1.40215E-3	2.70845E-4	2.38420E-6	4.98895E-4	-9.76906E-7	-2.61936E-9	0.00000E+0	0.00000E+0	2.00120E+0	0.00000E+0
1.66710E+0	-1.40274E-3	2.70845E-4	2.20539E-6	4.64918E-4	-9.76965E-7	-2.61936E-9	0.00000E+0	0.00000E+0	1.99830E+0	0.00000E+0
1.66310E+0	-1.40322E-3	2.70965E-4	2.08618E-6	4.31659E-4	-9.76965E-7	-2.61936E-9	0.00000E+0	0.00000E+0	1.99390E+0	0.00000E+0
1.65910E+0	-1.40382E-3	2.71084E-4	1.96697E-6	3.91187E-4	-9.77023E-7	-2.67757E-9	0.00000E+0	0.00000E+0	1.99180E+0	0.00000E+0
1.65510E+0	-1.40429E-3	2.71084E-4	1.72854E-6	3.49166E-4	-9.77023E-7	-2.67757E-9	0.00000E+0	0.00000E+0	1.99770E+0	0.00000E+0
1.65110E+0	-1.40465E-3	2.71084E-4	1.49012E-6	3.07443E-4	-9.77023E-7	-2.67757E-9	0.00000E+0	0.00000E+0	2.00330E+0	0.00000E+0
1.64710E+0	-1.40489E-3	2.71084E-4	1.25170E-6	2.60057E-4	-9.77081E-7	-2.73577E-9	0.00000E+0	0.00000E+0	2.00570E+0	0.00000E+0
1.64310E+0	-1.40465E-3	2.70965E-4	1.01329E-6	2.08915E-4	-9.77081E-7	-2.73577E-9	0.00000E+0	0.00000E+0	2.00160E+0	0.00000E+0
1.63910E+0	-1.40429E-3	2.70845E-4	7.15259E-7	1.79172E-4	-9.77081E-7	-2.73577E-9	0.00000E+0	0.00000E+0	2.00610E+0	0.00000E+0
1.63510E+0	-1.40394E-3	2.70726E-4	5.96050E-7	1.53304E-4	-9.77081E-7	-2.73577E-9	0.00000E+0	0.00000E+0	2.00570E+0	0.00000E+0
1.63110E+0	-1.40322E-3	2.70488E-4	4.76841E-7	1.18673E-4	-9.77081E-7	-2.73577E-9	0.00000E+0	0.00000E+0	2.00880E+0	0.00000E+0
1.62720E+0	-1.40227E-3	2.70249E-4	2.98025E-7	8.80961E-5	-9.77023E-7	-2.73577E-9	0.00000E+0	0.00000E+0	2.00490E+0	0.00000E+0
1.62310E+0	-1.40107E-3	2.69892E-4	5.96051E-8	6.62212E-5	-9.77023E-7	-2.79398E-9	0.00000E+0	0.00000E+0	2.00210E+0	0.00000E+0
1.61920E+0	-1.40000E-3	2.69772E-4	0.00000E+0	5.46577E-5	-9.76965E-7	-2.73577E-9	0.00000E+0	0.00000E+0	2.00150E+0	0.00000E+0
1.61520E+0	-1.39845E-3	2.69534E-4	-1.19210E-7	4.91145E-5	-9.76906E-7	-2.73577E-9	0.00000E+0	0.00000E+0	1.99000E+0	0.00000E+0
1.61120E+0	-1.39702E-3	2.69176E-4	-1.78815E-7	4.81608E-5	-9.76906E-7	-2.73577E-9	0.00000E+0	0.00000E+0	1.98500E+0	0.00000E+0
1.60720E+0	-1.39511E-3	2.68819E-4	-1.78815E-7	5.10814E-5	-9.76848E-7	-2.73577E-9	0.00000E+0	0.00000E+0	1.98760E+0	0.00000E+0
1.60320E+0	-1.39261E-3	2.68223E-4	-1.78815E-7	5.85916E-5	-9.76790E-7	-2.73577E-9	0.00000E+0	0.00000E+0	1.99540E+0	0.00000E+0
1.59920E+0	-1.38915E-3	2.67627E-4	-1.19210E-7	7.05724E-5	-9.76732E-7	-2.73577E-9	0.00000E+0	0.00000E+0	2.00050E+0	0.00000E+0
1.59520E+0	-1.38593E-3	2.67031E-4	-1.19210E-7	8.39238E-5	-9.76732E-7	-2.73577E-9	0.00000E+0	0.00000E+0	1.99760E+0	0.00000E+0
1.59120E+0	-1.38093E-3	2.65958E-4	-5.96051E-8	1.05381E-4	-9.76674E-7	-2.73577E-9	0.00000E+0	0.00000E+0	1.99520E+0	0.00000E+0
1.58720E+0	-1.37556E-3	2.64885E-4	5.96051E-8	1.26780E-4	-9.76674E-7	-2.67757E-9	0.00000E+0	0.00000E+0	1.99500E+0	0.00000E+0
1.58320E+0	-1.37127E-3	2.64050E-4	1.19210E-7	1.46569E-4	-9.76674E-7	-2.67757E-9	0.00000E+0	0.00000E+0	1.99380E+0	0.00000E+0
1.57920E+0	-1.36531E-3	2.62978E-4	1.78815E-7	1.74643E-4	-9.76674E-7	-2.67757E-9	0.00000E+0	0.00000E+0	1.99710E+0	0.00000E+0
1.57520E+0	-1.35792E-3	2.61428E-4	3.57630E-7	2.05875E-4	-9.76674E-7	-2.67757E-9	0.00000E+0	0.00000E+0	1.99450E+0	0.00000E+0
1.57120E+0	-1.35089E-3	2.60117E-4	5.96050E-7	2.37347E-4	-9.76674E-7	-2.67757E-9	0.00000E+0	0.00000E+0	1.99320E+0	0.00000E+0
1.56720E+0	-1.34326E-3	2.58686E-4	6.55655E-7	2.69355E-4	-9.76732E-7	-2.67757E-9	0.00000E+0	0.00000E+0	1.99650E+0	0.00000E+0
1.56320E+0	-1.33456E-3	2.56898E-4	7.74864E-7	3.06668E-4	-9.76732E-7	-2.67757E-9	0.00000E+0	0.00000E+0	1.99910E+0	0.00000E+0
1.55920E+0	-1.32538E-3	2.55110E-4	1.01329E-6	3.43205E-4	-9.76790E-7	-2.67757E-9	0.00000E+0	0.00000E+0	2.00250E+0	0.00000E+0
1.55520E+0	-1.31560E-3	2.53322E-4	1.19210E-6	3.79624E-4	-9.76848E-7	-2.67757E-9	0.00000E+0	0.00000E+0	2.00070E+0	0.00000E+0
1.55120E+0	-1.30654E-3	2.51533E-4	1.43052E-6	4.12704E-4	-9.76906E-7	-2.67757E-9	0.00000E+0	0.00000E+0	2.00120E+0	0.00000E+0
1.54720E+0	-1.29748E-3	2.49865E-4	1.54973E-6	4.44235E-4	-9.76965E-7	-2.67757E-9	0.00000E+0	0.00000E+0	2.00580E+0	0.00000E+0
1.54320E+0	-1.28938E-3	2.48434E-4	1.72854E-6	4.71713E-4	-9.76965E-7	-2.61936E-9	0.00000E+0	0.00000E+0	1.99820E+0	0.00000E+0
1.53920E+0	-1.28186E-3	2.47004E-4	1.84775E-6	4.95199E-4	-9.77023E-7	-2.61936E-9	0.00000E+0	0.00000E+0	1.99990E+0	0.00000E+0
1.53520E+0	-1.27614E-3	2.45931E-4	2.08618E-6	5.13915E-4	-9.77023E-7	-2.61936E-9	0.00000E+0	0.00000E+0	1.99850E+0	0.00000E+0
1.53120E+0	-1.27149E-3	2.45096E-4	2.20539E-6	5.27922E-4	-9.77023E-7	-2.61936E-9	0.00000E+0	0.00000E+0	1.99280E+0	0.00000E+0
1.52720E+0	-1.26816E-3	2.44500E-4	2.32460E-6	5.36982E-4	-9.77023E-7	-2.61936E-9	0.00000E+0	0.00000E+0	1.99390E+0	0.00000E+0
1.52320E+0	-1.26589E-3	2.44022E-4	2.32460E-6	5.40260E-4	-9.77023E-7	-2.61936E-9	0.00000E+0	0.00000E+0	1.99830E+0	0.00000E+0
1.51920E+0	-1.26470E-3	2.43903E-4	2.38420E-6	5.38114E-4	-9.77023E-7	-2.61936E-9	0.00000E+0	0.00000E+0	1.99890E+0	0.00000E+0
1.51520E+0	-1.26410E-3	2.43903E-4	2.44380E-6	5.31796E-4	-9.77023E-7	-2.61936E-9	0.00000E+0	0.00000E+0	1.99760E+0	0.00000E+0
1.51120E+0	-1.26386E-3	2.43903E-4	2.38420E-6	5.19518E-4	-9.77023E-7	-2.61936E-9	0.00000E+0	0.00000E+0	1.99870E+0	0.00000E+0
1.50720E+0	-1.26398E-3	2.43903E-4	2.38420E-6	5.00027E-4	-9.77081E-7	-2.61936E-9	0.00000E+0	0.00000E+0	2.00730E+0	0.00000E+0
1.50320E+0	-1.26422E-3	2.43903E-4	2.26499E-6	4.79819E-4	-9.77081E-7	-2.67757E-9	0.00000E+0	0.00000E+0	1.99960E+0	0.00000E+0
1.49920E+0	-1.26446E-3	2.44022E-4	2.14578E-6	4.49957E-4	-9.77139E-7	-2.67757E-9	0.00000E+0	0.00000E+0	1.99690E+0	0.00000E+0
1.49520E+0	-1.26494E-3	2.44142E-4	2.02657E-6	4.07996E-4	-9.77139E-7	-2.67757E-9	0.00000E+0	0.00000E+0	1.99600E+0	0.00000E+0
1.49120E+0	-1.26541E-3	2.44142E-4	1.84775E-6	3.69074E-4	-9.77197E-7	-2.67757E-9	0.00000E+0	0.00000E+0	1.99540E+0	0.00000E+0
1.48720E+0	-1.26577E-3	2.44262E-4	1.60933E-6	3.34444E-4	-9.77197E-7	-2.73577E-9	0.00000E+0	0.00000E+0	2.00420E+0	0.00000E+0
1.48320E+0	-1.26577E-3	2.44142E-4	1.49012E-6	2.90992E-4	-9.77197E-7	-2.73577E-9	0.00000E+0	0.00000E+0	2.00060E+0	0.00000E+0
1.47920E+0	-1.26541E-3	2.44142E-4	1.25170E-6	2.38479E-4	-9.77197E-7	-2.73577E-9	0.00000E+0	0.00000E+0	1.99670E+0	0.00000E+0
1.47520E+0	-1.26482E-3	2.43903E-4	9.53682E-7	1.94252E-4	-9.77256E-7	-2.79398E-9	0.00000E+0	0.00000E+0	2.00070E+0	0.00000E+0
1.47120E+0	-1.26398E-3	2.43784E-4	6.55655E-7	1.56165E-4	-9.77256E-7	-2.79398E-9	0.00000E+0	0.00000E+0	1.99860E+0	0.00000E+0
1.46720E+0	-1.26303E-3	2.43546E-4	5.96050E-7	1.26124E-4	-9.77197E-7	-2.79398E-9	0.00000E+0	0.00000E+0	2.00130E+0	0.00000E+0
1.46320E+0	-1.26172E-3	2.43188E-4	3.57630E-7	1.01388E-4	-9.77197E-7	-2.85219E-9	0.00000E+0	0.00000E+0	2.00190E+0	0.00000E+0
1.45920E+0	-1.26041E-3	2.42949E-4	2.38420E-7	8.56523E-5	-9.77197E-7	-2.85219E-9	0.00000E+0	0.00000E+0	2.00690E+0	0.00000E+0
1.45520E+0	-1.25874E-3	2.42592E-4	1.19210E-7	7.51023E-5	-9.77139E-7	-2.85219E-9	0.00000E+0	0.00000E+0	2.00310E+0	0.00000E+0
1.45120E+0	-1.25635E-3	2.42115E-4	5.96051E-8	7.03339E-5	-9.77139E-7	-2.79398E-9	0.00000E+0	0.00000E+0	2.00200E+0	0.00000E+0
1.44720E+0	-1.25337E-3	2.41519E-4	0.00000E+0	7.30758E-5	-9.77081E-7	-2.85219E-9	0.00000E+0	0.00000E+0	1.99520E+0	0.00000E+0
1.44320E+0	-1.24968E-3	2.40804E-4	5.96051E-8	8.19569E-5	-9.77023E-7	-2.79398E-9	0.00000E+0	0.00000E+0	1.99870E+0	0.00000E+0
1.43920E+0	-1.24646E-3	2.40088E-4	5.96051E-8	9.30433E-5	-9.77023E-7	-2.79398E-9	0.00000E+0	0.00000E+0	2.00110E+0	0.00000E+0
1.43520E+0	-1.24241E-3	2.39373E-4	5.96051E-8	1.08421E-4	-9.77023E-7	-2.79398E-9	0.00000E+0	0.00000E+0	1.99480E+0	0.00000E+0
1.43120E+0	-1.23776E-3	2.38300E-4	1.19210E-7	1.28389E-4	-9.77023E-7	-2.73577E-9	0.00000E+0	0.00000E+0	2.00410E+0	0.00000E+0
1.42720E+0	-1.23168E-3	2.37108E-4	2.98025E-7	1.54556E-4	-9.77023E-7	-2.73577E-9	0.00000E+0	0.00000E+0	2.00390E+0	0.00000E+0
1.42320E+0	-1.22357E-3	2.35558E-4	3.57630E-7	1.87756E-4	-9.77023E-7	-2.73577E-9	0.00000E+0	0.00000E+0	1.99780E+0	0.00000E+0
1.41920E+0	-1.21582E-3	2.34009E-4	4.17234E-7	2.20002E-4	-9.77023E-7	-2.73577E-9	0.00000E+0	0.00000E+0	1.99850E+0	0.00000E+0
1.41520E+0	-1.20784E-3	2.32578E-4	7.15259E-7	2.53262E-4	-9.77081E-7	-2.73577E-9	0.00000E+0	0.00000E+0	1.99660E+0	0.00000E+0
1.41120E+0	-1.19890E-3	2.30790E-4	7.74864E-7	2.90753E-4	-9.77139E-7	-2.73577E-9	0.00000E+0	0.00000E+0	1.99960E+0	0.00000E+0
1.40720E+0	-1.18936E-3	2.28883E-4	1.01329E-6	3.26933E-4	-9.77139E-7	-2.73577E-9	0.00000E+0	0.00000E+0	2.00650E+0	0.00000E+0
1.40320E+0	-1.18137E-3	2.27452E-4	1.25170E-6	3.58643E-4	-9.77197E-7	-2.73577E-9	0.00000E+0	0.00000E+0	1.99850E+0	0.00000E+0
1.39920E+0	-1.17327E-3	2.25903E-4	1.37091E-6	3.89757E-4	-9.77197E-7	-2.67757E-9	0.00000E+0	0.00000E+0	1.99390E+0	0.00000E+0
1.39520E+0	-1.16611E-3	2.24472E-4	1.54973E-6	4.17056E-4	-9.77197E-7	-2.67757E-9	0.00000E+0	0.00000E+0	2.00230E+0	0.00000E+0
1.39120E+0	-1.16111E-3	2.23518E-4	1.66894E-6	4.38513E-4	-9.77197E-7	-2.67757E-9	0.00000E+0	0.00000E+0	1.99980E+0	0.00000E+0
1.38720E+0	-1.15765E-3	2.22922E-4	1.84775E-6	4.53236E-4	-9.77197E-7	-2.67757E-9	0.00000E+0	0.00000E+0	2.00510E+0	0.00000E+0
1.38320E+0	-1.15491E-3	2.22565E-4	1.90736E-6	4.65455E-4	-9.77197E-7	-2.67757E-9	0.00000E+0	0.00000E+0	2.00250E+0	0.00000E+0
1.37920E+0	-1.15324E-3	2.22088E-4	1.96697E-6	4.71415E-4	-9.77197E-7	-2.67757E-9	0.00000E+0	0.00000E+0	2.00350E+0	0.00000E+0
1.37520E+0	-1.15228E-3	2.21969E-4	2.02657E-6	4.70819E-4	-9.77197E-7	-2.67757E-9	0.00000E+0	0.00000E+0	1.99960E+0	0.00000E+0
1.37120E+0	-1.15169E-3	2.21969E-4	2.08618E-6	4.63428E-4	-9.77197E-7	-2.67757E-9	0.00000E+0	0.00000E+0	1.99620E+0	0.00000E+0
1.36720E+0	-1.15157E-3	2.21969E-4	2.02657E-6	4.50017E-4	-9.77197E-7	-2.67757E-9	0.00000E+0	0.00000E+0	1.99930E+0	0.00000E+0
